NGPLIV 20250509-153958_A2_1.txt			
V [V]	J [mA/cm2]	I [mA]	P [J/cm2]
2.000000E+0	-4.955736E+2	-9.911472E+1	-9.911472E-1
1.978788E+0	-4.933684E+2	-9.867368E+1	-9.762714E-1
1.957576E+0	-4.893539E+2	-9.787078E+1	-9.579473E-1
1.936364E+0	-4.851930E+2	-9.703860E+1	-9.395101E-1
1.915152E+0	-4.809449E+2	-9.618898E+1	-9.210824E-1
1.893939E+0	-4.760572E+2	-9.521145E+1	-9.016236E-1
1.872727E+0	-4.709646E+2	-9.419292E+1	-8.819883E-1
1.851515E+0	-4.658506E+2	-9.317012E+1	-8.625294E-1
1.830303E+0	-4.605403E+2	-9.210806E+1	-8.429283E-1
1.809091E+0	-4.551510E+2	-9.103021E+1	-8.234096E-1
1.787879E+0	-4.494950E+2	-8.989900E+1	-8.036426E-1
1.766667E+0	-4.436811E+2	-8.873622E+1	-7.838366E-1
1.745455E+0	-4.382263E+2	-8.764526E+1	-7.649041E-1
1.724242E+0	-4.300589E+2	-8.601178E+1	-7.415258E-1
1.703030E+0	-4.255955E+2	-8.511911E+1	-7.248021E-1
1.681818E+0	-4.209223E+2	-8.418447E+1	-7.079149E-1
1.660606E+0	-4.159309E+2	-8.318617E+1	-6.906973E-1
1.639394E+0	-4.099886E+2	-8.199772E+1	-6.721328E-1
1.618182E+0	-4.022699E+2	-8.045398E+1	-6.509458E-1
1.596970E+0	-3.948008E+2	-7.896017E+1	-6.304850E-1
1.575758E+0	-3.899413E+2	-7.798826E+1	-6.144530E-1
1.554545E+0	-3.843321E+2	-7.686642E+1	-5.974617E-1
1.533333E+0	-3.775024E+2	-7.550047E+1	-5.788369E-1
1.512121E+0	-3.718501E+2	-7.437002E+1	-5.622824E-1
1.490909E+0	-3.661094E+2	-7.322188E+1	-5.458358E-1
1.469697E+0	-3.606767E+2	-7.213535E+1	-5.300855E-1
1.448485E+0	-3.550163E+2	-7.100326E+1	-5.142357E-1
1.427273E+0	-3.496568E+2	-6.993135E+1	-4.990555E-1
1.406061E+0	-3.444647E+2	-6.889293E+1	-4.843382E-1
1.384848E+0	-3.383186E+2	-6.766372E+1	-4.685200E-1
1.363636E+0	-3.320053E+2	-6.640106E+1	-4.527345E-1
1.342424E+0	-3.268561E+2	-6.537123E+1	-4.387796E-1
1.321212E+0	-3.210464E+2	-6.420929E+1	-4.241705E-1
1.300000E+0	-3.152555E+2	-6.305110E+1	-4.098322E-1
1.278788E+0	-3.088632E+2	-6.177264E+1	-3.949705E-1
1.257576E+0	-3.025836E+2	-6.051671E+1	-3.805217E-1
1.236364E+0	-2.969174E+2	-5.938348E+1	-3.670979E-1
1.215152E+0	-2.910181E+2	-5.820361E+1	-3.536310E-1
1.193939E+0	-2.849019E+2	-5.698039E+1	-3.401557E-1
1.172727E+0	-2.706844E+2	-5.413689E+1	-3.174390E-1
1.151515E+0	-2.467955E+2	-4.935910E+1	-2.841888E-1
1.130303E+0	-2.431880E+2	-4.863761E+1	-2.748762E-1
1.109091E+0	-2.396625E+2	-4.793249E+1	-2.658074E-1
1.087879E+0	-2.324422E+2	-4.648844E+1	-2.528689E-1
1.066667E+0	-2.292072E+2	-4.584144E+1	-2.444877E-1
1.045455E+0	-2.256746E+2	-4.513492E+1	-2.359325E-1
1.024242E+0	-2.253949E+2	-4.507899E+1	-2.308591E-1
1.003030E+0	-2.204009E+2	-4.408018E+1	-2.210688E-1
9.818182E-1	-2.157688E+2	-4.315377E+1	-2.118458E-1
9.606061E-1	-2.101405E+2	-4.202811E+1	-2.018623E-1
9.393939E-1	-2.065819E+2	-4.131639E+1	-1.940618E-1
9.181818E-1	-2.019335E+2	-4.038671E+1	-1.854117E-1
8.969697E-1	-1.972219E+2	-3.944438E+1	-1.769021E-1
8.757576E-1	-1.923079E+2	-3.846158E+1	-1.684151E-1
8.545455E-1	-1.874869E+2	-3.749737E+1	-1.602160E-1
8.333333E-1	-1.828831E+2	-3.657662E+1	-1.524026E-1
8.121212E-1	-1.782561E+2	-3.565121E+1	-1.447655E-1
7.909091E-1	-1.741770E+2	-3.483539E+1	-1.377581E-1
7.696970E-1	-1.703722E+2	-3.407444E+1	-1.311350E-1
7.484848E-1	-1.659647E+2	-3.319294E+1	-1.242221E-1
7.272727E-1	-1.615628E+2	-3.231257E+1	-1.175003E-1
7.060606E-1	-1.561997E+2	-3.123995E+1	-1.102865E-1
6.848485E-1	-1.505225E+2	-3.010450E+1	-1.030851E-1
6.636364E-1	-1.461043E+2	-2.922086E+1	-9.696013E-2
6.424242E-1	-1.416368E+2	-2.832735E+1	-9.099088E-2
6.212121E-1	-1.369591E+2	-2.739182E+1	-8.508065E-2
6.000000E-1	-1.318120E+2	-2.636241E+1	-7.908723E-2
5.787879E-1	-1.267041E+2	-2.534082E+1	-7.333480E-2
5.575758E-1	-1.218318E+2	-2.436636E+1	-6.793046E-2
5.363636E-1	-1.170811E+2	-2.341623E+1	-6.279807E-2
5.151515E-1	-1.123383E+2	-2.246766E+1	-5.787125E-2
4.939394E-1	-1.076761E+2	-2.153523E+1	-5.318549E-2
4.727273E-1	-1.031286E+2	-2.062573E+1	-4.875173E-2
4.515152E-1	-9.838100E+1	-1.967620E+1	-4.442051E-2
4.303030E-1	-9.360510E+1	-1.872102E+1	-4.027856E-2
4.090909E-1	-8.885380E+1	-1.777076E+1	-3.634928E-2
3.878788E-1	-8.412845E+1	-1.682569E+1	-3.263164E-2
3.666667E-1	-7.915685E+1	-1.583137E+1	-2.902418E-2
3.454545E-1	-7.418790E+1	-1.483758E+1	-2.562855E-2
3.242424E-1	-6.938185E+1	-1.387637E+1	-2.249654E-2
3.030303E-1	-6.476275E+1	-1.295255E+1	-1.962508E-2
2.818182E-1	-6.021550E+1	-1.204310E+1	-1.696982E-2
2.606061E-1	-5.561485E+1	-1.112297E+1	-1.449357E-2
2.393939E-1	-5.096135E+1	-1.019227E+1	-1.219984E-2
2.181818E-1	-4.618179E+1	-9.236358E+0	-1.007603E-2
1.969697E-1	-4.153470E+1	-8.306941E+0	-8.181078E-3
1.757576E-1	-3.697312E+1	-7.394624E+0	-6.498306E-3
1.545455E-1	-3.244850E+1	-6.489700E+0	-5.014768E-3
1.333333E-1	-2.794025E+1	-5.588050E+0	-3.725367E-3
1.121212E-1	-2.343191E+1	-4.686382E+0	-2.627214E-3
9.090909E-2	-1.891756E+1	-3.783512E+0	-1.719778E-3
6.969697E-2	-1.438892E+1	-2.877785E+0	-1.002864E-3
4.848485E-2	-9.899395E+0	-1.979879E+0	-4.799707E-4
2.727273E-2	-5.448365E+0	-1.089673E+0	-1.485918E-4
6.060606E-3	-9.918370E-1	-1.983674E-1	-6.011133E-6
-1.515152E-2	3.461188E+0	6.922376E-1	-5.244224E-5
-3.636364E-2	7.842365E+0	1.568473E+0	-2.851769E-4
-5.757576E-2	1.226726E+1	2.453452E+0	-7.062968E-4
-7.878788E-2	1.669258E+1	3.338516E+0	-1.315173E-3
-1.000000E-1	2.111931E+1	4.223862E+0	-2.111931E-3
*** END of Data

0.2000	Area [cm2]
0.2805	Jsc [mA/cm2]
0.0013	Voc [V]
-16.0435	Fill Factor
-Inf	Efficiency [%]
0.0	Source Irradiance [mW/cm2]
10.0	Voltage Settling Time [ms]
A2_1	Device ID